[
{"timestamp":1663090028,"duration":5,"type":"Data","dataType":"HR","value":56,"signalQuality":90},
{"timestamp":1663090033,"type":"Data","duration":5,"dataType":"SPO2","value":100,"signalQuality":63},
{"timestamp":1663090094,"duration":60,"type":"Data","dataType":"Sleep","SleepStage":3},
{"timestamp":1663090095,"duration":60,"type":"Data","dataType":"HRV","RMSSD":43,"SDNN":37,"signalQuality":0},
{"timestamp":1663090096,"type":"raw","rawType":"HeartBeat","samplingFreq":50,"duration":60,"counts":57,"value":[22,73,125,179,233,284,333,386,440,496,551,604,660,714,766,820,875,929,982,1033,1085,1139,1193,1246,1298,1349,1400,1453,1507,1558,1605,1657,1709,1761,1814,1866,1917,1971,2026,2081,2132,2182,2237,2291,2345,2398,2450,2502,2555,2609,2659,2708,2762,2817,2872,2923,2974]},
{"timestamp":1663090097,"type":"raw","rawType":"PPG_Green","sampleFreq":50,"duration":60,"value":[12136,12139,12142,12145,12147,12151,12155,12161,12163,12168,12171,12174,12177,12180,12183,12186,12188,12191,12194,12196,12201,12201,12201,12195,12180,12160,12140,12121,12106,12093,12083,12074,12064,12058,12051,12048,12045,12043,12045,12048,12052,12052,12054,12054,12053,12055,12055,12058,12060,12065,12067,12069,12075,12077,12083,12087,12091,12096,12101,12106,12109,12116,12120,12125,12129,12135,12139,12145,12149,12153,12157,12160,12162,12162,12153,12136,12115,12097,12083,12071,12059,12049,12042,12036,12028,12023,12021,12016,12017,12018,12021,12023,12026,12026,12027,12027,12028,12028,12030,12030,12033,12035,12037,12040,12043,12044,12047,12051,12054,12057,12060,12064,12066,12069,12071,12074,12075,12079,12080,12083,12086,12087,12089,12090,12091,12091,12085,12072,12049,12023,12000,11978,11961,11944,11932,11917,11903,11892,11884,11874,11870,11864,11862,11863,11861,11860,11855,11852,11849,11847,11844,11842,11840,11840,11840,11839,11840,11840,11842,11844,11845,11848,11849,11852,11855,11857,11862,11862,11865,11867,11869,11874,11873,11877,11880,11882,11884,11886,11886,11881,11869,11849,11829,11811,11793,11781,11768,11756,11746,11737,11729,11724,11720,11716,11715,11716,11717,11717,11717,11716,11717,11715,11717,11718,11719,11721,11723,11726,11728,11734,11737,11740,11745,11750,11755,11759,11764,11767,11773,11776,11781,11785,11787,11791,11796,11799,11803,11806,11809,11813,11816,11820,11824,11824,11818,11805,11790,11773,11761,11750,11740,11734,11727,11722,11717,11713,11711,11711,11710,11713,11715,11714,11714,11713,11715,11715,11714,11715,11716,11717,11720,11723,11725,11728,11731,11733,11738,11742,11745,11749,11753,11755,11759,11762,11766,11769,11773,11775,11777,11779,11781,11783,11784,11787,11785,11780,11770,11751,11732,11714,11701,11686,11674,11665,11657,11649,11644,11639,11637,11636,11637,11638,11640,11640,11640,11638,11638,11638,11638,11638,11640,11639,11643,11646,11648,11651,11655,11658,11663,11667,11670,11676,11678,11681,11686,11691,11694,11698,11701,11705,11707,11710,11712,11713,11708,11695,11678,11657,11640,11626,11614,11602,11592,11584,11577,11571,11567,11562,11560,11562,11565,11567,11571,11573,11574,11576,11576,11579,11581,11582,11583,11585,11589,11592,11597,11604,11608,11615,11620,11624,11623,11624,11624,11625,11629,11635,11640,11648,11657,11663,11673,11680,11688,11697,11704,11709,11709,11704,11696,11688,11680,11675,11672,11670,11667,11669,11669,11670,11673,11675,11678,11685,11692,11698,11705,11708,11715,11721,11728,11734,11738,11746,11754,11761,11768,11776,11784,11793,11800,11809,11817,11826,11833,11842,11849,11858,11866,11874,11882,11888,11895,11906,11914,11921,11928,11936,11942,11947,11954,11959,11967,11969,11968,11968,11966,11966,11966,11966,11968,11972,11973,11977,11978,11981,11985,11989,11993,11997,12001,12006,12010,12014,12020,12026,12029,12036,12039,12045,12053,12057,12063,12069,12075,12080,12086,12092,12100,12103,12111,12117,12122,12129,12136,12141,12146,12153,12161,12166,12172,12178,12182,12187,12190,12195,12200,12204,12208,12209,12211,12210,12209,12212,12213,12214,12218,12220,12223,12224,12227,12230,12233,12235,12239,12242,12244,12249,12253,12256,12261,12263,12269,12274,12279,12284,12288,12294,12298,12302,12306,12312,12315,12321,12327,12332,12338,12343,12348,12355,12360,12365,12370,12373,12378,12382,12385,12388,12391,12396,12399,12399,12400,12398,12397,12394,12393,12392,12389,12388,12386,12384,12384,12382,12383,12379,12381,12379,12378,12378,12378,12378,12376,12376,12375,12377,12376,12377,12377,12376,12376,12377,12376,12376,12378,12379,12377,12378,12380,12381,12383,12382,12383,12383,12382,12386,12385,12386,12390,12389,12391,12390,12390,12393,12392,12390,12386,12381,12371,12363,12354,12347,12338,12329,12322,12314,12307,12299,12294,12289,12284,12282,12279,12276,12273,12270,12268,12266,12265,12263,12263,12262,12262,12263,12263,12263,12263,12265,12265,12267,12268,12269,12271,12272,12275,12275,12279,12279,12282,12284,12285,12287,12291,12293,12294,12297,12298,12299,12300,12301,12304,12302,12299,12291,12281,12271,12262,12255,12246,12240,12234,12228,12222,12218,12214,12210,12207,12208,12208,12209,12208,12208,12208,12206,12206,12205,12206,12207,12207,12208,12209,12212,12214,12215,12217,12219,12221,12223,12225,12229,12231,12234,12237,12239,12241,12244,12246,12249,12253,12257,12259,12260,12262,12265,12268,12270,12271,12266,12257,12245,12235,12225,12215,12210,12204,12199,12197,12194,12192,12191,12189,12189,12191,12191,12191,12192,12192,12191,12191,12192,12192,12193,12195,12195,12198,12199,12202,12203,12204,12208,12210,12213,12214,12217,12218,12220,12221,12224,12225,12228,12231,12233,12235,12237,12238,12240,12241,12242,12242,12239,12230,12216,12200,12189,12178,12168,12160,12152,12144,12139,12133,12128,12125,12121,12120,12119,12120,12120,12119,12119,12117,12117,12118,12118,12118,12120,12121,12121,12124,12125,12127,12129,12132,12134,12137,12137,12142,12145,12147,12149,12152,12154,12156,12160,12163,12166,12167,12170,12172,12172,12176,12178,12174,12167,12155,12139,12124,12113,12103,12095,12087,12079,12073,12069,12063,12060,12057,12058,12057,12058,12059,12059,12057,12057,12058,12060,12060,12060,12062,12064,12065,12068,12073,12075,12077,12080,12083,12086,12089,12095,12098,12098,12103,12107,12110,12113,12116,12120,12123,12126,12129,12131,12134,12138,12141,12142,12145,12144,12137,12124,12109,12094,12081,12073,12064,12055,12050,12044,12040,12033,12031,12030,12030,12028,12030,12032,12032,12030,12030,12031,12030,12031,12032,12034,12037,12040,12043,12044,12048,12050,12053,12058,12062,12065,12069,12072,12075,12080,12083,12087,12091,12094,12099,12101,12105,12109,12111,12115,12118,12122,12124,12124,12121,12109,12093,12078,12064,12053,12042,12035,12028,12020,12014,12010,12006,12003,12002,12002,12003,12004,12005,12006,12005,12006,12006,12006,12009,12012,12016,12020,12022,12027,12031,12035,12039,12045,12048,12052,12058,12062,12066,12072,12075,12080,12082,12088,12093,12097,12101,12106,12108,12111,12115,12118,12119,12115,12104,12088,12072,12059,12046,12040,12032,12027,12021,12018,12014,12011,12011,12012,12013,12016,12017,12019,12018,12020,12019,12019,12021,12022,12023,12028,12030,12032,12036,12038,12041,12045,12049,12052,12055,12059,12062,12067,12069,12073,12077,12081,12086,12090,12092,12094,12097,12100,12103,12104,12095,12082,12065,12046,12030,12017,12008,11999,11990,11984,11979,11972,11968,11965,11966,11966,11968,11972,11973,11975,11974,11974,11975,11978,11979,11982,11985,11989,11993,11996,12000,12006,12009,12015,12019,12022,12027,12032,12036,12040,12044,12049,12054,12060,12064,12068,12074,12077,12081,12086,12086,12089,12085,12074,12059,12041,12027,12016,12008,11999,11994,11989,11984,11982,11979,11978,11979,11979,11983,11986,11989,11991,11994,11994,11998,11999,12002,12003,12006,12011,12015,12018,12023,12027,12031,12035,12041,12044,12049,12052,12057,12060,12065,12069,12075,12077,12082,12086,12090,12094,12098,12103,12106,12109,12114,12115,12113,12104,12088,12069,12052,12038,12026,12017,12007,12001,11992,11989,11984,11982,11977,11977,11978,11981,11981,11979,11980,11978,11976,11975,11977,11977,11978,11978,11981,11984,11985,11989,11993,11995,11998,12001,12006,12009,12012,12017,12019,12024,12027,12029,12034,12037,12042,12045,12050,12051,12056,12058,12060,12061,12056,12042,12026,12009,11993,11981,11971,11963,11955,11948,11944,11940,11937,11932,11933,11935,11937,11941,11942,11943,11945,11944,11945,11948,11950,11953,11957,11962,11965,11968,11973,11977,11982,11986,11993,11997,12004,12009,12015,12022,12027,12032,12037,12042,12049,12053,12059,12063,12067,12071,12075,12081,12083,12080,12070,12057,12042,12026,12015,12007,12003,11997,11991,11987,11984,11982,11982,11980,11982,11986,11990,11990,11993,11992,11994,11998,12000,12004,12008,12010,12017,12021,12025,12031,12036,12042,12048,12052,12059,12066,12072,12076,12082,12088,12094,12099,12107,12111,12116,12119,12123,12128,12132,12135,12132,12122,12106,12091,12077,12064,12054,12046,12040,12035,12030,12025,12020,12018,12018,12019,12022,12023,12024,12025,12026,12026,12027,12027,12029,12029,12032,12034,12037,12039,12042,12046,12050,12052,12057,12060,12066,12068,12073,12077,12081,12086,12090,12095,12098,12102,12105,12109,12111,12113,12114,12104,12091,12073,12053,12036,12022,12009,11997,11987,11975,11966,11956,11948,11942,11936,11932,11930,11929,11927,11925,11920,11915,11912,11907,11906,11903,11902,11902,11900,11901,11900,11899,11900,11900,11900,11900,11902,11903,11904,11907,11907,11908,11910,11911,11912,11914,11917,11916,11916,11918,11918,11915,11905,11888,11864,11841,11818,11799,11781,11768,11753,11740,11728,11717,11708,11701,11695,11691,11691,11690,11689,11687,11683,11680,11678,11676,11675,11674,11675,11675,11676,11677,11678,11681,11684,11688,11690,11693,11697,11702,11705,11707,11711,11716,11718,11722,11727,11732,11735,11739,11743,11746,11749,11752,11752,11744,11732,11716,11699,11685,11672,11662,11654,11648,11642,11638,11633,11629,11628,11628,11628,11629,11633,11634,11634,11635,11638,11639,11639,11641,11646,11647,11652,11656,11660,11665,11670,11675,11681,11683,11690,11694,11699,11706,11710,11715,11722,11727,11733,11740,11744,11751,11753,11760,11765,11768,11773,11775,11772,11763,11753,11741,11731,11724,11717,11711,11708,11703,11701,11697,11695,11694,11695,11697,11698,11699,11701,11703,11704,11706,11707,11709,11712,11714,11719,11723,11726,11729,11735,11741,11745,11751,11756,11761,11768,11771,11779,11784,11789,11793,11798,11805,11808,11812,11815,11819,11823,11826,11825,11819,11810,11795,11782,11769,11758,11750,11741,11731,11725,11717,11711,11706,11704,11699,11700,11700,11699,11696,11695,11691,11690,11689,11689,11688,11687,11689,11690,11692,11693,11695,11697,11700,11705,11706,11710,11714,11717,11722,11726,11729,11733,11739,11741,11743,11747,11750,11751,11750,11741,11728,11712,11698,11686,11675,11664,11658,11653,11649,11647,11643,11645,11646,11647,11652,11657,11664,11670,11674,11679,11684,11688,11693,11700,11706,11712,11721,11728,11737,11744,11751,11758,11766,11774,11783,11791,11799,11808,11816,11823,11830,11838,11846,11854,11861,11868,11876,11883,11887,11890,11889,11881,11869,11858,11849,11842,11836,11833,11832,11831,11831,11830,11832,11835,11837,11844,11849,11857,11863,11866,11874,11880,11885,11890,11895,11901,11907,11913,11921,11927,11935,11941,11949,11956,11962,11968,11976,11982,11988,11997,12003,12009,12017,12023,12030,12035,12042,12048,12053,12058,12062,12065,12063,12055,12041,12028,12016,12007,12000,11994,11988,11986,11983,11980,11980,11981,11982,11985,11990,11995,11999,12003,12006,12009,12011,12015,12018,12023,12028,12032,12037,12043,12049,12054,12059,12066,12072,12077,12085,12091,12095,12101,12107,12114,12119,12127,12132,12137,12141,12146,12150,12155,12159,12161,12158,12149,12137,12123,12111,12101,12093,12084,12081,12074,12070,12068,12065,12065,12066,12068,12070,12073,12077,12079,12080,12083,12084,12088,12092,12095,12099,12102,12106,12111,12117,12121,12125,12131,12137,12142,12147,12152,12156,12163,12169,12174,12179,12185,12190,12195,12200,12204,12207,12210,12215,12220,12222,12217,12207,12195,12178,12166,12154,12145,12138,12130,12126,12120,12116,12113,12109,12111,12113,12116,12117,12119,12118,12122,12121,12122,12123,12126,12127,12130,12134,12138,12142,12146,12150,12154,12159,12163,12169,12174,12179,12184,12187,12192,12198,12202,12208,12213,12216,12219,12223,12226,12228,12231,12229,12218,12203,12186,12169,12154,12142,12131,12124,12115,12107,12098,12093,12092,12088,12087,12090,12089,12090,12088,12086,12086,12084,12083,12083,12084,12086,12089,12090,12090,12092,12095,12099,12101,12105,12107,12110,12114,12115,12118,12120,12123,12124,12127,12128,12131,12132,12134,12133,12135,12134,12127,12111,12087,12064,12038,12015,11995,11976,11958,11941,11922,11907,11891,11876,11867,11856,11852,11846,11843,11835,11830,11824,11817,11812,11807,11803,11798,11796,11793,11789,11788,11788,11786,11785,11785,11786,11783,11784,11785,11785,11787,11788,11788,11789,11791,11793,11795,11797,11797,11799,11801,11802,11804,11804,11797,11785,11766,11745,11727,11711,11695,11683,11673,11661,11653,11645,11637,11632,11631,11628,11629,11629,11629,11631,11632,11632,11632,11635,11636,11638,11640,11644,11649,11651,11655,11660,11665,11668,11674,11677,11684,11689,11695,11700,11705,11711,11716,11723,11729,11735,11742,11746,11752,11758,11762,11769,11773,11777,11779,11777,11770,11761,11752,11743,11738,11733,11729,11727,11725,11722,11722,11722,11722,11724,11726,11731,11734,11737,11740,11742,11745,11749,11753,11756,11760,11766,11770,11773,11779,11784,11789,11794,11800,11804,11809,11814,11821,11827,11831,11836,11842,11849,11853,11861,11865,11870,11876,11880,11885,11890,11895,11897,11903,11904,11902,11895,11887,11879,11872,11866,11861,11857,11854,11850,11847,11844,11842,11840,11840,11840,11841,11842,11842,11843,11843,11842,11845,11845,11847,11850,11851,11854,11857,11859,11863,11865,11870,11872,11876,11880,11886,11887,11892,11895,11900,11903,11907,11911,11913,11919,11920,11922,11924,11928,11930,11929,11924,11914,11898,11886,11873,11861,11850,11841,11835,11829,11824,11820,11816,11815,11815,11816,11814,11815,11816,11817,11816,11817,11819,11819,11822,11827,11830,11833,11835,11839,11845,11850,11854,11859,11863,11870,11874,11881,11885,11890,11895,11899,11905,11910,11916,11920,11923,11928,11930,11935,11935,11931,11921,11909,11898,11888,11881,11875,11873,11867,11864,11864,11864,11864,11866,11870,11874,11881,11886,11893,11896,11901,11906,11912,11917,11923,11928,11936,11941,11948,11955,11963,11969,11978,11987,11993,12002,12009,12017,12024,12032,12039,12047,12051,12058,12066,12072,12078,12085,12091,12098,12101,12107,12113,12114,12108,12096,12085,12074,12066,12059,12052,12045,12041,12038,12037,12035,12035,12036,12038,12040,12045,12049,12051,12053,12056,12058,12060,12064,12067,12070,12073,12078,12082,12086,12091,12097,12102,12106,12111,12116,12120,12126,12129,12135,12139,12143,12148,12151,12155,12159,12164,12168,12173,12176,12178,12182,12187,12187,12184,12178,12163,12146,12133,12121,12109,12099,12092,12084,12078,12072,12066,12064,12063,12062,12064,12063,12065,12065,12065,12066,12065,12066,12068,12069,12072,12074,12077,12081,12083,12086,12090,12094,12098,12101,12105,12110,12114,12118,12122,12126,12131,12133,12137,12141,12146,12152,12154,12158,12161,12164,12167,12170,12168,12161,12145,12130,12112,12102,12091,12084,12075,12070,12064,12060,12057,12056,12055,12055,12057,12061,12063,12064,12066,12068,12070,12072,12077,12079,12083,12088,12091,12097,12101,12105,12111,12117,12121,12127,12130,12135,12142,12148,12153,12157,12162,12167,12174,12180,12183,12188,12190,12193,12198,12201,12202,12197,12184,12170,12153,12140,12128,12119,12111,12103,12095,12092,12088,12086,12084,12084,12085,12088,12091,12091,12092,12092,12092,12093,12094,12096,12100,12101,12104,12106,12108,12112,12116,12120,12122,12128,12132,12135,12140,12144,12147,12151,12155,12159,12162,12167,12173,12175,12176,12180,12182,12183,12178,12167,12149,12130,12113,12098,12084,12071,12060,12048,12038,12030,12021,12013,12007,12005,12002,12002,12003,12000,11998,11995,11992,11989,11987,11988,11987,11987,11988,11987,11989,11990,11992,11993,11995,11997,11998,11998,12003,12005,12007,12008,12010,12013,12014,12017,12019,12021,12020,12023,12022,12024,12020,12007,11987,11961,11937,11915,11896,11878,11865,11849,11837,11824,11814,11803,11797,11790,11787,11785,11783,11781,11777,11773,11770,11768,11765,11764,11763,11765,11764,11763,11766,11766,11766,11769,11770,11774,11775,11777,11779,11783,11786,11789,11790,11794,11798,11800,11803,11805,11809,11813,11815,11815,11817,11816,11809,11795,11776,11756,11738,11724,11713,11701,11691,11684,11678,11671,11667,11665,11663,11664,11665,11668,11669,11668,11670,11671,11672,11676,11676,11678,11682,11685,11689,11695,11699,11704,11708,11714,11719,11723,11728,11735,11740,11745,11749,11757,11764,11768,11775,11780,11786,11789,11796,11800,11805,11810,11810,11808,11797,11788,11774,11765,11754,11750,11743,11739,11735,11732,11730,11729,11729,11729,11732,11735,11736,11741,11741,11743,11745,11746,11748,11752,11754,11759,11763,11766,11770,11774,11778,11783,11788,11792,11797,11804,11807,11813,11817,11821,11827,11832,11838,11841,11845,11850,11853,11859,11861,11861,11854,11842,11829,11816,11805,11793,11785,11776,11768,11760,11755,11750,11746,11743,11743,11742,11742,11743,11741,11739,11738,11739,11738,11739,11740,11742,11743,11747,11751,11753,11756,11760,11763,11766,11770,11774,11778,11782,11787,11791,11795,11800,11802,11807,11811,11813,11817,11819,11822,11822,11816,11802,11787,11772,11759,11749,11741,11733,11727,11723,11719,11718,11717,11718,11721,11725,11732,11737,11743,11746,11751,11756,11762,11767,11774,11779,11786,11792,11799,11805,11814,11820,11828,11836,11843,11851,11859,11867,11875,11882,11890,11896,11904,11912,11917,11926,11933,11940,11946,11952,11959,11965,11968,11967,11959,11947,11936,11927,11918,11913,11907,11905,11902,11900,11900,11899,11902,11906,11910,11915,11922,11927,11930,11933,11939,11942,11947,11952,11958,11962,11968,11973,11979,11985,11993,11998,12004,12012,12019,12024,12030,12036,12044,12049,12056,12061,12065,12074,12079,12083,12090,12096,12101,12106,12111,12114,12118,12122,12122,12113,12102,12087,12075,12063,12056,12046,12040,12035,12031,12028,12026,12024,12024,12024,12029,12032,12037,12039,12041,12043,12046,12049,12051,12053,12058,12062,12066,12068,12074,12079,12084,12090,12093,12098,12103,12107,12112,12118,12122,12127,12132,12137,12141,12146,12151,12155,12160,12164,12167,12171,12174,12180,12180,12174,12163,12147,12131,12117,12105,12096,12089,12080,12075,12070,12064,12060,12058,12058,12059,12059,12061,12061,12060,12062,12059,12061,12060,12062,12064,12067,12070,12073,12075,12078,12083,12087,12093,12096,12101,12108,12111,12116,12120,12125,12128,12133,12139,12143,12146,12150,12152,12157,12160,12160,12153,12140,12123,12105,12090,12079,12067,12058,12053,12045,12038,12033,12030,12028,12026,12026,12029,12028,12028,12028,12026,12026,12026,12027,12029,12031,12032,12034,12036,12039,12042,12043,12048,12051,12054,12058,12062,12066,12069,12073,12075,12080,12084,12086,12090,12092,12095,12096,12099,12101,12099,12086,12070,12047,12025,12006,11990,11976,11960,11949,11936,11924,11914,11905,11898,11892,11888,11888,11886,11885,11882,11880,11877,11875,11873,11870]},
{"timestamp":1663090098,"type":"raw","rawType":"MI","samplingFreq":1,"duration":60,"dimension":3,"value":[4048,2499,4260,4059,2477,4267,4064,2481,4255,4078,2481,4238,4081,2503,4243,4079,2514,4228,4043,2494,4272,4073,2487,4232,4083,2490,4235,4081,2494,4234,4074,2503,4222,4051,2498,4256,4074,2484,4239,4083,2491,4235,4072,2508,4229,4047,2484,4264,4068,2492,4261,4075,2484,4234,4067,2484,4229,4072,2497,4223,4054,2496,4248,4059,2482,4239,4084,2483,4251,4082,2470,4238,4065,2484,4232,4070,2505,4227,4050,2487,4265,4069,2472,4254,4070,2478,4245,4067,2478,4226,4072,2492,4235,4057,2503,4260,4056,2484,4258,4084,2479,4246,4082,2481,4249,4080,2474,4237,4074,2501,4228,4059,2497,4253,4066,2477,4255,4078,2475,4245,4071,2485,4245,4074,2487,4238,4063,2508,4225,4045,2493,4272,4059,2494,4260,4068,2475,4245,4063,2483,4249,4066,2506,4235,4048,2494,4268,4080,2489,4245,4078,2484,4234,4078,2487,4234,4079,2502,4216,4065,2495,4245,4062,2485,4253,4071,2476,4231,4079,2480,4242,4081,2498,4242,4067,2504,4241,4051,2480,4257]},
{"timestamp":1663090328,"duration":5,"type":"Data","dataType":"HR","value":56,"signalQuality":90},
{"timestamp":1663090333,"type":"Data","duration":5,"dataType":"SPO2","value":98,"signalQuality":58},
{"timestamp":1663090394,"duration":60,"type":"Data","dataType":"Sleep","SleepStage":3},
{"timestamp":1663090395,"duration":60,"type":"Data","dataType":"HRV","RMSSD":34.1,"SDNN":34,"signalQuality":0},
{"timestamp":1663090396,"type":"raw","rawType":"HeartBeat","samplingFreq":50,"duration":60,"counts":57,"value":[38,94,150,206,258,308,360,412,466,519,571,625,680,735,788,839,890,944,999,1053,1106,1159,1209,1261,1316,1371,1424,1475,1525,1577,1630,1683,1735,1785,1837,1891,1945,1999,2051,2102,2153,2206,2259,2312,2363,2413,2466,2520,2575,2628,2678,2730,2784,2837,2890,2940,2990]},
{"timestamp":1663090397,"type":"raw","rawType":"PPG_Green","sampleFreq":50,"duration":60,"value":[15296,15301,15303,15307,15310,15314,15316,15317,15320,15324,15325,15329,15334,15339,15345,15350,15355,15362,15368,15376,15380,15388,15394,15399,15406,15415,15421,15427,15433,15440,15448,15457,15461,15467,15473,15482,15493,15498,15501,15497,15487,15475,15467,15458,15453,15449,15444,15440,15438,15437,15434,15433,15433,15435,15441,15445,15449,15455,15458,15459,15466,15470,15473,15478,15481,15486,15490,15497,15502,15510,15516,15524,15530,15538,15543,15550,15557,15563,15570,15575,15585,15593,15599,15608,15614,15618,15630,15636,15644,15651,15656,15669,15676,15684,15679,15672,15664,15653,15647,15643,15639,15636,15633,15631,15627,15630,15631,15629,15633,15637,15642,15647,15652,15655,15660,15661,15666,15670,15675,15679,15684,15689,15694,15700,15706,15711,15717,15723,15729,15736,15743,15749,15756,15762,15768,15773,15780,15786,15794,15801,15807,15812,15823,15826,15833,15841,15845,15858,15864,15870,15872,15865,15856,15846,15839,15833,15828,15824,15820,15816,15816,15814,15811,15811,15813,15815,15820,15822,15825,15827,15828,15830,15833,15836,15840,15840,15844,15848,15852,15856,15861,15867,15872,15877,15881,15886,15890,15896,15899,15903,15908,15914,15919,15925,15930,15936,15939,15946,15949,15956,15957,15962,15974,15980,15981,15977,15968,15955,15944,15935,15925,15918,15910,15902,15895,15886,15882,15877,15871,15868,15870,15869,15868,15865,15862,15860,15858,15855,15855,15853,15854,15853,15853,15854,15855,15857,15859,15861,15861,15865,15865,15867,15870,15874,15877,15876,15879,15882,15882,15889,15890,15894,15897,15897,15903,15908,15909,15905,15894,15878,15861,15844,15833,15821,15810,15797,15788,15777,15768,15758,15752,15749,15746,15745,15742,15737,15732,15728,15725,15721,15718,15715,15714,15712,15710,15711,15712,15712,15713,15715,15716,15717,15719,15723,15726,15726,15730,15735,15734,15743,15741,15745,15748,15751,15758,15761,15760,15751,15736,15718,15700,15683,15669,15656,15642,15632,15618,15608,15595,15587,15577,15573,15570,15571,15568,15566,15563,15560,15557,15556,15554,15552,15553,15552,15554,15557,15557,15558,15562,15565,15568,15571,15573,15577,15580,15586,15588,15594,15597,15602,15606,15611,15614,15618,15627,15628,15637,15641,15643,15639,15627,15611,15596,15583,15572,15561,15550,15540,15531,15524,15515,15509,15502,15501,15501,15501,15501,15502,15501,15500,15502,15502,15502,15502,15504,15505,15506,15508,15511,15514,15517,15522,15526,15530,15534,15539,15543,15546,15554,15558,15564,15571,15577,15580,15587,15591,15596,15604,15608,15618,15621,15624,15622,15612,15601,15589,15576,15569,15559,15551,15545,15537,15531,15527,15522,15521,15519,15520,15523,15526,15526,15528,15528,15529,15530,15534,15536,15540,15540,15545,15549,15554,15557,15562,15569,15574,15577,15584,15591,15597,15603,15607,15615,15620,15627,15634,15638,15643,15652,15657,15664,15669,15676,15686,15691,15692,15686,15676,15664,15653,15645,15638,15632,15624,15618,15615,15608,15602,15600,15600,15601,15604,15608,15609,15609,15612,15610,15613,15616,15617,15618,15623,15626,15630,15636,15639,15646,15650,15656,15660,15667,15670,15678,15683,15689,15694,15700,15706,15714,15720,15723,15734,15738,15746,15752,15755,15767,15773,15780,15776,15766,15756,15744,15734,15728,15720,15714,15709,15703,15701,15698,15694,15695,15696,15701,15704,15704,15703,15705,15706,15709,15709,15709,15712,15715,15718,15721,15725,15731,15734,15739,15742,15750,15752,15757,15763,15768,15776,15781,15785,15791,15796,15804,15805,15812,15820,15824,15837,15842,15843,15839,15829,15814,15799,15788,15780,15770,15759,15752,15742,15733,15726,15719,15711,15708,15708,15707,15707,15703,15700,15700,15696,15698,15695,15694,15695,15696,15698,15699,15699,15704,15706,15709,15713,15718,15721,15724,15729,15735,15737,15741,15749,15753,15757,15762,15768,15773,15776,15782,15788,15791,15799,15805,15805,15797,15784,15769,15754,15742,15728,15715,15703,15690,15679,15671,15659,15651,15643,15639,15635,15634,15633,15633,15631,15629,15626,15627,15625,15627,15627,15625,15627,15629,15630,15635,15635,15641,15643,15646,15649,15654,15657,15662,15667,15671,15674,15680,15687,15692,15696,15703,15707,15715,15718,15724,15730,15735,15744,15747,15749,15745,15732,15719,15706,15692,15681,15672,15662,15654,15643,15633,15628,15623,15617,15615,15613,15615,15619,15617,15618,15618,15618,15620,15621,15621,15623,15625,15628,15633,15635,15638,15644,15647,15653,15659,15665,15668,15674,15679,15684,15689,15697,15701,15707,15712,15718,15725,15730,15737,15743,15747,15757,15764,15767,15763,15752,15739,15728,15713,15704,15695,15683,15674,15667,15659,15653,15647,15640,15640,15639,15640,15642,15639,15639,15640,15641,15639,15640,15639,15641,15644,15645,15648,15651,15654,15658,15663,15666,15672,15674,15678,15682,15689,15696,15701,15705,15710,15716,15722,15728,15733,15739,15744,15748,15754,15762,15764,15763,15754,15741,15725,15713,15701,15692,15683,15672,15664,15654,15650,15644,15637,15636,15635,15636,15637,15634,15632,15631,15630,15629,15629,15628,15630,15631,15632,15635,15637,15642,15643,15646,15650,15654,15658,15661,15666,15671,15673,15680,15683,15688,15695,15697,15702,15707,15711,15719,15723,15723,15716,15703,15689,15671,15657,15645,15632,15623,15611,15601,15590,15583,15574,15570,15567,15567,15566,15565,15563,15560,15555,15554,15553,15550,15549,15551,15551,15551,15552,15555,15558,15560,15562,15564,15569,15571,15574,15577,15583,15587,15589,15594,15597,15600,15607,15607,15614,15618,15620,15628,15633,15630,15621,15607,15589,15570,15556,15540,15527,15512,15500,15486,15474,15466,15454,15445,15441,15437,15434,15434,15431,15428,15427,15424,15421,15421,15422,15419,15419,15421,15422,15423,15425,15430,15432,15435,15437,15442,15443,15449,15451,15456,15461,15466,15468,15473,15478,15481,15490,15492,15498,15502,15508,15515,15517,15518,15509,15495,15479,15465,15451,15438,15424,15413,15399,15391,15380,15371,15362,15358,15354,15355,15355,15354,15352,15351,15350,15352,15353,15352,15353,15354,15356,15358,15360,15364,15367,15373,15377,15382,15388,15392,15395,15401,15406,15410,15418,15426,15429,15433,15441,15445,15454,15457,15463,15470,15475,15484,15488,15492,15487,15476,15463,15447,15433,15422,15412,15401,15390,15380,15372,15364,15358,15351,15349,15350,15349,15350,15348,15349,15350,15350,15351,15350,15352,15354,15354,15356,15361,15362,15367,15368,15375,15379,15382,15389,15393,15398,15402,15407,15413,15421,15424,15431,15435,15440,15450,15453,15458,15464,15470,15480,15485,15487,15482,15470,15459,15445,15433,15420,15407,15396,15385,15375,15366,15359,15353,15348,15343,15343,15343,15345,15343,15343,15344,15345,15345,15346,15347,15348,15351,15352,15357,15361,15364,15367,15374,15378,15383,15387,15392,15400,15402,15410,15416,15423,15428,15433,15440,15447,15454,15456,15464,15468,15477,15485,15487,15487,15482,15469,15455,15441,15428,15417,15407,15397,15388,15381,15369,15365,15357,15354,15354,15352,15357,15356,15356,15356,15358,15357,15361,15360,15361,15365,15367,15371,15374,15380,15385,15389,15395,15402,15407,15411,15418,15425,15431,15439,15445,15448,15457,15462,15471,15476,15485,15492,15496,15503,15513,15516,15514,15505,15493,15481,15469,15459,15451,15442,15434,15425,15416,15414,15406,15404,15404,15405,15407,15407,15407,15407,15407,15408,15411,15412,15413,15414,15417,15419,15424,15427,15433,15437,15443,15445,15451,15456,15462,15467,15474,15478,15486,15494,15497,15503,15507,15515,15523,15527,15536,15538,15537,15530,15517,15504,15490,15475,15464,15453,15442,15432,15424,15414,15407,15401,15396,15395,15396,15397,15395,15395,15393,15391,15392,15393,15391,15391,15394,15395,15397,15399,15402,15407,15411,15414,15420,15422,15427,15430,15436,15440,15447,15452,15458,15463,15466,15477,15477,15485,15486,15491,15502,15506,15503,15495,15482,15464,15449,15435,15421,15409,15396,15383,15370,15361,15348,15340,15334,15329,15328,15328,15328,15070,15324,15324,15324,15322,15323,15323,15325,15328,15329,15333,15337,15342,15346,15352,15356,15360,15365,15373,15377,15383,15390,15394,15402,15407,15412,15417,15425,15429,15439,15442,15450,15456,15464,15472,15477,15478,15470,15461,15448,15436,15424,15414,15404,15394,15384,15376,15368,15362,15355,15354,15352,15355,15356,15359,15358,15358,15359,15360,15365,15368,15369,15373,15376,15378,15385,15388,15394,15398,15405,15411,15417,15423,15427,15437,15441,15448,15456,15465,15469,15476,15484,15490,15499,15501,15511,15516,15525,15533,15540,15542,15538,15531,15517,15505,15495,15482,15475,15464,15454,15447,15437,15431,15426,15421,15419,15420,15423,15423,15422,15421,15421,15421,15421,15424,15424,15423,15428,15428,15434,15437,15439,15444,15448,15452,15455,15461,15467,15471,15474,15482,15488,15493,15498,15504,15509,15517,15521,15527,15534,15537,15546,15552,15556,15552,15543,15530,15515,15501,15488,15477,15465,15452,15443,15434,15425,15418,15412,15408,15407,15408,15408,15404,15401,15401,15398,15397,15395,15396,15394,15397,15397,15399,15400,15404,15405,15410,15416,15417,15421,15424,15429,15433,15437,15443,15445,15452,15459,15461,15465,15472,15477,15484,15491,15492,15487,15476,15462,15446,15431,15419,15407,15395,15385,15375,15364,15358,15351,15347,15344,15345,15346,15346,15347,15343,15342,15342,15341,15341,15340,15342,15344,15345,15350,15350,15353,15360,15364,15367,15372,15377,15381,15388,15393,15398,15405,15409,15417,15422,15426,15435,15440,15449,15456,15460,15456,15445,15432,15418,15403,15391,15380,15370,15359,15348,15342,15332,15327,15319,15318,15317,15318,15321,15320,15322,15322,15323,15322,15325,15327,15327,15330,15334,15338,15342,15345,15354,15358,15361,15368,15371,15377,15385,15390,15397,15405,15411,15416,15427,15432,15442,15445,15452,15460,15467,15477,15482,15484,15479,15469,15456,15444,15431,15423,15416,15405,15397,15389,15382,15377,15372,15368,15370,15375,15378,15379,15379,15382,15385,15387,15391,15391,15394,15396,15400,15404,15408,15412,15417,15423,15429,15435,15442,15447,15453,15457,15465,15471,15477,15483,15489,15494,15502,15510,15515,15523,15532,15537,15549,15551,15551,15544,15530,15516,15499,15486,15473,15461,15450,15439,15429,15419,15411,15404,15399,15396,15395,15397,15394,15393,15394,15394,15392,15392,15391,15390,15392,15392,15395,15396,15398,15401,15403,15405,15408,15411,15412,15415,15417,15421,15424,15430,15431,15434,15438,15440,15447,15448,15454,15459,15460,15467,15472,15473,15466,15454,15438,15424,15409,15398,15385,15374,15363,15356,15344,15341,15335,15330,15329,15331,15332,15330,15330,15327,15325,15323,15322,15322,15320,15321,15321,15321,15324,15324,15326,15328,15332,15337,15338,15343,15345,15347,15352,15358,15358,15366,15368,15373,15377,15379,15385,15387,15394,15400,15406,15404,15396,15382,15370,15357,15347,15338,15328,15319,15312,15304,15300,15296,15293,15292,15293,15297,15297,15298,15294,15294,15292,15294,15292,15292,15293,15293,15293,15297,15298,15301,15304,15306,15310,15312,15318,15320,15325,15329,15331,15337,15339,15344,15347,15349,15356,15358,15365,15373,15376,15374,15366,15349,15332,15314,15298,15281,15267,15254,15240,15230,15216,15208,15197,15193,15188,15187,15187,15186,15183,15181,15178,15178,15176,15176,15175,15174,15175,15178,15178,15181,15184,15188,15191,15194,15200,15203,15207,15211,15216,15221,15226,15230,15237,15240,15247,15249,15257,15262,15267,15274,15282,15287,15288,15276,15261,15246,15229,15219,15209,15200,15192,15185,15181,15172,15172,15169,15170,15173,15178,15182,15186,15190,15193,15196,15198,15200,15205,15209,15213,15218,15223,15229,15235,15242,15248,15256,15263,15269,15277,15282,15289,15297,15303,15313,15320,15326,15334,15339,15350,15355,15363,15372,15377,15388,15393,15400,15400,15393,15383,15371,15361,15353,15348,15344,15340,15336,15338,15333,15334,15334,15339,15343,15350,15356,15360,15365,15371,15374,15379,15383,15389,15394,15399,15406,15412,15418,15426,15432,15440,15447,15453,15463,15471,15477,15483,15491,15500,15508,15514,15520,15528,15534,15546,15549,15557,15568,15572,15583,15589,15596,15595,15586,15575,15562,15554,15546,15538,15531,15527,15522,15518,15516,15514,15512,15516,15517,15523,15526,15529,15529,15532,15536,15538,15538,15543,15543,15548,15553,15558,15560,15567,15570,15576,15581,15587,15592,15597,15603,15609,15613,15618,15626,15631,15638,15643,15647,15654,15660,15666,15671,15677,15686,15687,15689,15680,15666,15653,15639,15627,15618,15607,15596,15588,15580,15571,15568,15560,15558,15556,15557,15559,15558,15558,15556,15558,15557,15558,15558,15560,15561,15562,15564,15568,15571,15574,15579,15581,15584,15588,15593,15599,15603,15608,15614,15620,15625,15631,15635,15643,15644,15651,15656,15659,15669,15675,15676,15671,15661,15646,15630,15618,15608,15597,15588,15579,15575,15563,15562,15555,15553,15552,15556,15558,15557,15556,15556,15555,15554,15556,15555,15557,15558,15560,15560,15566,15568,15572,15577,15582,15587,15590,15596,15601,15606,15612,15616,15620,15626,15628,15638,15640,15647,15651,15656,15664,15667,15667,15655,15641,15625,15611,15600,15591,15581,15572,15564,15556,15548,15543,15538,15537,15537,15540,15542,15542,15542,15542,15542,15542,15542,15542,15546,15548,15551,15553,15556,15560,15564,15568,15572,15576,15579,15584,15588,15596,15602,15605,15613,15618,15622,15629,15633,15639,15645,15650,15657,15662,15662,15651,15637,15622,15605,15590,15581,15568,15553,15544,15532,15524,15515,15508,15501,15500,15497,15498,15500,15496,15494,15493,15493,15489,15489,15490,15490,15491,15492,15492,15495,15497,15499,15505,15508,15511,15515,15520,15522,15527,15532,15538,15541,15547,15551,15557,15563,15566,15573,15576,15583,15590,15592,15588,15578,15561,15547,15529,15517,15505,15495,15483,15473,15467,15455,15452,15444,15442,15442,15444,15446,15447,15444,15447,15446,15446,15448,15448,15448,15451,15453,15455,15461,15463,15469,15473,15478,15482,15489,15493,15499,15505,15509,15516,15521,15528,15533,15539,15544,15552,15556,15562,15569,15575,15584,15588,15587,15577,15564,15550,15537,15526,15514,15503,15494,15484,15476,15464,15459,15453,15448,15446,15448,15449,15450,15448,15448,15447,15447,15447,15448,15450,15449,15450,15453,15455,15457,15461,15462,15466,15469,15473,15477,15480,15484,15488,15495,15498,15501,15507,15512,15514,15523,15522,15529,15535,15538,15547,15550,15549,15540,15525,15509,15494,15479,15467,15455,15444,15436,15428,15417,15408,15400,15394,15387,15388,15387,15383,15380,15376,15375,15370,15368,15368,15368,15364,15367,15367,15368,15371,15373,15376,15379,15382,15384,15388,15391,15396,15401,15403,15409,15414,15417,15427,15426,15432,15438,15441,15447,15452,15453,15446,15433,15420,15404,15391,15376,15368,15356,15350,15339,15329,15324,15320,15320,15318,15324,15324,15321,15318,15318,15316,15315,15314,15314,15313,15311,15312,15312,15314,15318,15321,15323,15328,15331,15335,15338,15344,15348,15354,15360,15364,15369,15377,15379,15388,15391,15396,15405,15408,15406,15397,15385,15367,15353,15340,15329,15321,15313,15305,15298,15288,15282,15273,15268,15265,15264,15265,15267,15265,15264,15264,15264,15265,15265,15267,15268,15271,15275,15277,15281,15289,15291,15298,15303,15309,15315,15319,15325,15331,15338,15345,15351,15357,15363,15369,15378,15382,15389,15396,15403,15412,15414,15413,15404,15391,15375,15363,15351,15341,15329,15320,15311,15306,15298,15293,15288,15288,15288,15288,15290,15292,15293,15294,15294,15296,15296,15298,15301,15302,15305,15308,15314,15317,15322,15328,15334,15338,15342,15349,15356,15360,15366,15372,15377,15385,15392,15397,15403,15409,15419,15423,15430,15438,15444,15454,15459,15462,15459,15448,15433,15415,15401,15389,15378,15368,15357,15347,15339,15331,15325,15318,15319,15318,15320,15318,15320,15317,15318,15317,15317,15317,15317,15320,15321,15324,15327,15332,15336,15339,15346,15350,15355,15360,15364,15371,15376,15380,15387,15394,15401,15408,15412,15419,15425,15433,15438,15447,15452,15461,15468,15473,15473,15463,15449,15435,15421,15411,15400,15392,15382,15374,15368,15360,15357,15352,15349,15351,15352,15356,15356,15357,15354,15357,15359,15361,15363,15365,15369,15374,15376,15379,15383,15390,15395,15401,15405,15412,15417,15422,15429,15436,15444,15451,15458,15462,15469,15475,15485,15489,15498,15503,15511,15522,15526,15530,15525,15515,15503,15490,15478,15470,15461,15454,15447,15445,15439,15438,15434,15436,15437,15441,15443,15446,15448,15449,15452,15454,15456,15460,15463,15464,15470,15475,15481,15485,15491,15497,15504,15510,15517,15523,15532,15538,15546,15552,15559,15562,15574,15578,15583,15591,15597,15607,15616,15619,15614,15605,15592,15578,15563,15553,15545,15536,15528,15521,15514,15510,15507,15505,15506,15510,15512,15514,15516,15516,15517,15517,15519,15520,15521,15525,15528,15529,15533,15537,15543,15548,15551,15556,15562,15567,15572,15576,15584,15589,15596,15601,15609,15613,15621,15623,15632,15638,15643,15654,15657,15656,15648,15635,15619,15600,15588,15576,15564,15554,15543,15534,15526,15517,15513,15506,15506,15507,15509,15510,15509,15510,15508,15511,15512,15512,15512,15516,15518,15523,15525,15530,15536,15539,15545,15550,15556,15563,15567,15573,15580,15585,15592,15597,15602,15611,15617,15624,15628,15636,15644,15648,15656,15664,15667,15662,15649,15636,15621,15609,15598,15587,15578,15570,15561,15555,15548,15543,15539,15537,15539,15540,15540,15540,15541,15542,15539,15540,15539,15539,15541,15540,15543,15545,15545,15549,15551,15556,15559,15562,15567,15571,15575,15580,15583,15589,15595,15599,15604,15610,15610,15618,15620,15625,15630,15633,15640,15643,15645,15639,15625,15610,15591,15577,15564,15550,15538,15527,15515,15506,15499,15491,15482,15479,15478,15478,15477,15474,15470,15469,15467,15464,15462,15461,15460,15457,15457,15457,15458,15458,15460,15462,15463,15465,15469,15469,15472,15476,15478,15479,15482,15487,15489,15493,15495,15500,15501,15504,15509,15515,15520,15516,15510,15496,15481,15468,15457,15446,15437,15426,15421,15413,15412,15404,15401,15400,15398,15400,15401,15400,15399,15395,15397,15396,15395,15394,15394,15396,15396,15398,15399,15402,15404,15406,15409,15410,15416,15418,15421,15423,15426,15432,15434,15440,15442,15445,15449,15454,15462,15466,15472,15472,15462,15449,15435,15422,15412,15402,15394,15386,15377,15368,15364,15357,15350,15350,15347,15349,15348,15346,15345,15343,15340,15340,15338,15336,15336,15333,15334,15336,15338,15339,15340,15343,15346,15348,15349,15352,15355,15359,15361,15363,15368,15371,15377,15377,15381,15385,15386,15394,15397,15402,15399,15389,15372,15354,15339,15324,15308,15296,15283,15273]},
{"timestamp":1663090398,"type":"raw","rawType":"MI","samplingFreq":1,"duration":60,"dimension":3,"value":[3283,4368,3185,3307,4358,3167,3314,4355,3158,3323,4358,3169,3304,4348,3177,3264,4362,3225,3287,4373,3187,3320,4355,3166,3323,4357,3158,3317,4359,3175,3282,4360,3195,3259,4378,3196,3291,4362,3176,3315,4352,3165,3318,4354,3162,3313,4355,3175,3273,4368,3201,3272,4370,3193,3302,4355,3174,3301,4362,3176,3304,4357,3169,3320,4355,3165,3309,4362,3169,3281,4361,3206,3250,4378,3192,3296,4361,3170,3307,4356,3172,3313,4354,3173,3297,4359,3184,3274,4368,3208,3262,4370,3180,3298,4359,3177,3318,4364,3164,3314,4365,3176,3282,4362,3191,3247,4387,3196,3301,4367,3168,3307,4361,3170,3314,4360,3161,3326,4358,3161,3318,4360,3172,3295,4367,3190,3259,4374,3184,3306,4367,3165,3318,4366,3153,3324,4359,3152,3297,4362,3166,3266,4381,3185,3264,4377,3194,3296,4363,3166,3308,4361,3154,3313,4362,3166,3286,4365,3175,3269,4379,3189,3257,4381,3196,3289,4367,3178,3305,4361,3165,3293,4362,3187,3252,4379,3189,3266,4380,3168]}
]
